SOC,Current,Voltage,Power,Energy_kWh,Charge_level
0,7.440009852,304.6762433,2266.794252,0.62966507,0
0.003444449,7.440009841,304.7903588,2267.643269,1.259565978,0.647556412
0.006888898,7.44000983,304.9015044,2268.47019,1.889696586,1.295112824
0.010333347,7.440009819,305.009947,2269.277,2.520051309,1.942669236
0.013777796,7.440009808,305.1159278,2270.065496,3.150625058,2.590225648
0.017222245,7.440009798,305.2196655,2270.837302,3.781413197,3.23778206
0.020666694,7.440009788,305.3213579,2271.593891,4.4124115,3.885338472
0.024111143,7.440009778,305.4211838,2272.336594,5.043616109,4.532894884
0.027555592,7.440009768,305.5193054,2273.066616,5.675023503,5.180451296
0.031000041,7.440009758,305.6158692,2273.785049,6.306630461,5.828007708
0.03444449,7.440009749,305.7110081,2274.492881,6.938434039,6.47556412
0.037888939,7.44000974,305.8048422,2275.191005,7.57043154,7.123120532
0.041333388,7.44000973,305.8974803,2275.88023,8.202620493,7.770676944
0.044777837,7.440009721,305.9890208,2276.561289,8.834998629,8.418233356
0.048222286,7.440009712,306.0795529,2277.234846,9.467563864,9.065789768
0.051666735,7.440009703,306.1691574,2277.901502,10.10031428,9.71334618
0.055111184,7.440009694,306.2579072,2278.561798,10.73324811,10.36090259
0.058555632,7.440009685,306.3458686,2279.21623,11.36636373,11.00845882
0.062000081,7.440009677,306.4331015,2279.865241,11.99965963,11.65601523
0.06544453,7.440009668,306.5196602,2280.509235,12.63313442,12.30357164
0.068888979,7.440009659,306.6055938,2281.148579,13.2667868,12.95112805
0.072333428,7.440009651,306.6909468,2281.783604,13.90061558,13.59868446
0.075777877,7.440009642,306.7757596,2282.414609,14.53461964,14.24624088
0.079222326,7.440009634,306.8600687,2283.041867,15.16879794,14.89379729
0.082666775,7.440009626,306.9439071,2283.665624,15.8031495,15.5413537
0.086111224,7.440009617,307.027305,2284.286102,16.43767342,16.18891011
0.089555673,7.440009609,307.1102894,2284.903504,17.07236883,16.83646652
0.093000122,7.440009601,307.1928851,2285.518014,17.70723495,17.48402294
0.09644457,7.440009592,307.2751143,2286.129798,18.342271,18.13157916
0.099889019,7.440009584,307.3569973,2286.739006,18.97747628,18.77913557
0.103333468,7.440009576,307.4385526,2287.345775,19.61285011,19.42669198
0.106777917,7.440009568,307.5197967,2287.95023,20.24839184,20.0742484
0.110222366,7.44000956,307.6007448,2288.552482,20.88410086,20.72180481
0.113666815,7.440009552,307.6814106,2289.152633,21.5199766,21.36936122
0.117111264,7.440009544,307.7618065,2289.750778,22.15601848,22.01691763
0.120555713,7.440009536,307.841944,2290.346999,22.79222598,22.66447404
0.124000161,7.440009528,307.9218333,2290.941373,23.42859858,23.31203027
0.12744461,7.44000952,308.0014837,2291.533971,24.0651358,23.95958668
0.130889059,7.440009512,308.0809037,2292.124854,24.70183714,24.60714309
0.134333508,7.440009504,308.1601011,2292.714081,25.33870217,25.2546995
0.137777957,7.440009496,308.2390829,2293.301704,25.97573042,25.90225592
0.141222406,7.440009488,308.3178555,2293.88777,26.61292146,26.54981233
0.144666854,7.44000948,308.3964248,2294.472324,27.25027489,27.19736855
0.148111303,7.440009473,308.474796,2295.055404,27.88779028,27.84492496
0.151555752,7.440009465,308.5529741,2295.637048,28.52546724,28.49248138
0.155000201,7.440009457,308.6309635,2296.217287,29.16330537,29.14003779
0.15844465,7.440009449,308.7087682,2296.796152,29.8013043,29.7875942
0.161889099,7.440009441,308.7863919,2297.373671,30.43946366,30.43515061
0.165333547,7.440009434,308.8638381,2297.949869,31.07778306,31.08270684
0.168777996,7.440009426,308.9411098,2298.524769,31.71626217,31.73026325
0.172222445,7.440009418,309.0182099,2299.098392,32.35490061,32.37781966
0.175666894,7.44000941,309.095141,2299.670758,32.99369804,33.02537607
0.179111343,7.440009403,309.1719056,2300.241885,33.63265412,33.67293248
0.182555791,7.440009395,309.2485059,2300.811789,34.27176851,34.32048871
0.18600024,7.440009388,309.3249439,2301.380486,34.91104086,34.96804512
0.189444689,7.44000938,309.4012214,2301.94799,35.55047086,35.61560153
0.192889138,7.440009372,309.4773404,2302.514313,36.19005817,36.26315794
0.196333587,7.440009365,309.5533023,2303.079468,36.82980247,36.91071436
0.199778035,7.440009357,309.6291087,2303.643466,37.46970343,37.55827058
0.203222484,7.44000935,309.704761,2304.206318,38.10976074,38.20582699
0.206666933,7.440009342,309.7802605,2304.768032,38.74997408,38.8533834
0.210111382,7.440009334,309.8556085,2305.328619,39.39034314,39.50093982
0.21355583,7.440009327,309.930806,2305.888087,40.03086761,40.14849604
0.217000279,7.440009319,310.0058541,2306.446444,40.67154718,40.79605245
0.220444728,7.440009312,310.0807539,2307.003696,41.31238154,41.44360886
0.223889177,7.440009304,310.1555062,2307.559852,41.95337039,42.09116528
0.227333626,7.440009297,310.2301121,2308.114918,42.59451342,42.73872169
0.230778074,7.44000929,310.3045723,2308.6689,43.23581034,43.38627791
0.234222523,7.440009282,310.3788876,2309.221805,43.87726084,44.03383432
0.237666972,7.440009275,310.4530588,2309.773637,44.51886463,44.68139074
0.24111142,7.440009267,310.5270867,2310.324403,45.1606214,45.32894696
0.244555869,7.44000926,310.6009718,2310.874107,45.80253088,45.97650337
0.248000318,7.440009253,310.674715,2311.422754,46.44459275,46.62405978
0.251444767,7.440009245,310.7483168,2311.97035,47.08680674,47.2716162
0.254889215,7.440009238,310.8217778,2312.516898,47.72917255,47.91917242
0.258333664,7.44000923,310.8950986,2313.062404,48.37168988,48.56672883
0.261778113,7.440009223,310.9682799,2313.606871,49.01435846,49.21428524
0.265222562,7.440009216,311.0413221,2314.150303,49.65717798,49.86184166
0.26866701,7.440009209,311.1142258,2314.692705,50.30014818,50.50939788
0.272111459,7.440009201,311.1869915,2315.23408,50.94326876,51.15695429
0.275555908,7.440009194,311.2596197,2315.774432,51.58653943,51.8045107
0.279000356,7.440009187,311.3321109,2316.313765,52.22995992,52.45206693
0.282444805,7.44000918,311.4044656,2316.852082,52.87352995,53.09962334
0.285889254,7.440009172,311.4766842,2317.389388,53.51724922,53.74717975
0.289333702,7.440009165,311.5487673,2317.925684,54.16111747,54.39473598
0.292778151,7.440009158,311.6207152,2318.460975,54.8051344,55.04229239
0.2962226,7.440009151,311.6925284,2318.995264,55.44929975,55.6898488
0.299667049,7.440009144,311.7642074,2319.528554,56.09361324,56.33740521
0.303111497,7.440009136,311.8357525,2320.060848,56.73807459,56.98496144
0.306555946,7.440009129,311.9071642,2320.592149,57.38268352,57.63251785
0.310000395,7.440009122,311.978443,2321.122462,58.02743976,58.28007426
0.313444843,7.440009115,312.0495891,2321.651787,58.67234303,58.92763048
0.316889292,7.440009108,312.1206031,2322.18013,59.31739307,59.5751869
0.320333741,7.440009101,312.1914852,2322.707491,59.96258959,60.22274331
0.323778189,7.440009094,312.262236,2323.233876,60.60793234,60.87029953
0.327222638,7.440009087,312.3328558,2323.759285,61.25342103,61.51785594
0.330667087,7.44000908,312.403345,2324.283723,61.8990554,62.16541236
0.334111535,7.440009073,312.4737039,2324.807192,62.54483517,62.81296858
0.337555984,7.440009066,312.543933,2325.329695,63.19076009,63.46052499
0.341000432,7.440009059,312.6140326,2325.851234,63.83682987,64.10808122
0.344444881,7.440009052,312.6840031,2326.371814,64.48304427,64.75563763
0.34788933,7.440009045,312.7538449,2326.891435,65.129403,65.40319404
0.351333778,7.440009038,312.8235583,2327.410101,65.7759058,66.05075026
0.354778227,7.440009031,312.8931437,2327.927815,66.42255242,66.69830668
0.358222676,7.440009024,312.9626015,2328.444579,67.06934258,67.34586309
0.361667124,7.440009017,313.031932,2328.960397,67.71627602,67.99341931
0.365111573,7.44000901,313.1011356,2329.47527,68.36335249,68.64097572
0.368556021,7.440009003,313.1702127,2329.989202,69.01057171,69.28853195
0.37200047,7.440008996,313.2391635,2330.502194,69.65793343,69.93608836
0.375444919,7.440008989,313.3079885,2331.014251,70.30543739,70.58364477
0.378889367,7.440008982,313.3766879,2331.525373,70.95308333,71.231201
0.382333816,7.440008975,313.4452622,2332.035564,71.60087098,71.87875741
0.385778264,7.440008969,313.5137117,2332.544827,72.2488001,72.52631363
0.389222713,7.440008962,313.5820368,2333.053164,72.89687042,73.17387004
0.392667162,7.440008955,313.6502377,2333.560577,73.5450817,73.82142646
0.39611161,7.440008948,313.7183148,2334.067069,74.19343366,74.46898268
0.399556059,7.440008941,313.7862685,2334.572643,74.84192606,75.11653909
0.403000507,7.440008935,313.854099,2335.077301,75.49055864,75.76409532
0.406444956,7.440008928,313.9218069,2335.581046,76.13933116,76.41165173
0.409889405,7.440008921,313.9893922,2336.083879,76.78824335,77.05920814
0.413333853,7.440008914,314.0568555,2336.585805,77.43729496,77.70676436
0.416778302,7.440008908,314.124197,2337.086824,78.08648574,78.35432078
0.42022275,7.440008901,314.1914171,2337.58694,78.73581545,79.001877
0.423667199,7.440008894,314.2585161,2338.086155,79.38528382,79.64943341
0.427111647,7.440008887,314.3254943,2338.584471,80.03489062,80.29698964
0.430556096,7.440008881,314.3923521,2339.081891,80.68463559,80.94454605
0.434000545,7.440008874,314.4590897,2339.578418,81.33451849,81.59210246
0.437444993,7.440008867,314.5257075,2340.074053,81.98453906,82.23965868
0.440889442,7.440008861,314.5922059,2340.568799,82.63469706,82.8872151
0.44433389,7.440008854,314.6585851,2341.062659,83.28499224,83.53477132
0.447778339,7.440008848,314.7248455,2341.555635,83.93542436,84.18232773
0.451222787,7.440008841,314.7909873,2342.047729,84.58599317,84.82988396
0.454667236,7.440008834,314.857011,2342.538943,85.23669844,85.47744037
0.458111684,7.440008828,314.9229168,2343.029281,85.8875399,86.12499659
0.461556133,7.440008821,314.988705,2343.518744,86.53851733,86.772553
0.465000581,7.440008815,315.054376,2344.007335,87.18963048,87.42010923
0.46844503,7.440008808,315.1199301,2344.495055,87.84087911,88.06766564
0.471889478,7.440008801,315.1853675,2344.981908,88.49226297,88.71522186
0.475333927,7.440008795,315.2506886,2345.467896,89.14378183,89.36277828
0.478778375,7.440008788,315.3158937,2345.953021,89.79543545,90.0103345
0.482222824,7.440008782,315.3809832,2346.437284,90.44722358,90.65789091
0.485667273,7.440008775,315.4459572,2346.92069,91.09914599,91.30544732
0.489111721,7.440008769,315.5108162,2347.403239,91.75120245,91.95300355
0.49255617,7.440008762,315.5755604,2347.884935,92.40339271,92.60055996
0.496000618,7.440008756,315.6401902,2348.365779,93.05571654,93.24811618
0.499445067,7.44000875,315.7047057,2348.845773,93.7081737,93.8956726
0.502889515,7.440008743,315.7691075,2349.32492,94.36076395,94.54322882
0.506333964,7.440008737,315.8333956,2349.803223,95.01348707,95.19078523
0.509778412,7.44000873,315.8975705,2350.280683,95.66634281,95.83834146
0.51322286,7.440008724,315.9616325,2350.757302,96.31933095,96.48589768
0.516667309,7.440008717,316.0255818,2351.233083,96.97245125,97.13345409
0.520111757,7.440008711,316.0894187,2351.708029,97.62570349,97.78101032
0.523556206,7.440008705,316.1531436,2352.18214,98.27908741,98.42856673
0.527000654,7.440008698,316.2167567,2352.65542,98.93260281,99.07612295
0.530445103,7.440008692,316.2802583,2353.127871,99.58624944,99.72367936
0.533889551,7.440008686,316.3436487,2353.599494,100.2400271,100.3712356
0.537334,7.440008679,316.4069282,2354.070292,100.8939355,101.018792
0.540778448,7.440008673,316.4700972,2354.540268,101.5479745,101.6663482
0.544222897,7.440008667,316.5331558,2355.009422,102.2021437,102.3139046
0.547667345,7.44000866,316.5961044,2355.477758,102.8564431,102.9614609
0.551111794,7.440008654,316.6589432,2355.945278,103.5108724,103.6090173
0.554556242,7.440008648,316.7216727,2356.411984,104.1654312,104.2565735
0.558000691,7.440008642,316.7842929,2356.877877,104.8201195,104.9041299
0.561445139,7.440008635,316.8468043,2357.34296,105.474937,105.5516861
0.564889587,7.440008629,316.909207,2357.807235,106.1298835,106.1992424
0.568334036,7.440008623,316.9715015,2358.270704,106.7849587,106.8467988
0.571778484,7.440008617,317.0336879,2358.73337,107.4401624,107.494355
0.575222933,7.44000861,317.0957666,2359.195234,108.0954944,108.1419114
0.578667381,7.440008604,317.1577378,2359.656298,108.7509545,108.7894676
0.58211183,7.440008598,317.2196019,2360.116565,109.4065424,109.437024
0.585556278,7.440008592,317.281359,2360.576037,110.062258,110.0845803
0.589000726,7.440008586,317.3430095,2361.034715,110.718101,110.7321365
0.592445175,7.44000858,317.4045536,2361.492602,111.3740711,111.3796929
0.595889623,7.440008573,317.4659916,2361.949699,112.0301683,112.0272491
0.599334072,7.440008567,317.5273238,2362.40601,112.6863922,112.6748055
0.60277852,7.440008561,317.5885505,2362.861535,113.3427426,113.3223618
0.606222969,7.440008555,317.6496719,2363.316277,113.9992193,113.9699182
0.609667417,7.440008549,317.7106883,2363.770237,114.6558222,114.6174744
0.613111865,7.440008543,317.7716,2364.223419,115.3125509,115.2650306
0.616556314,7.440008537,317.8324073,2364.675824,115.9694053,115.912587
0.620000762,7.440008531,317.8931104,2365.127453,116.6263851,116.5601433
0.623445211,7.440008525,317.9537095,2365.578309,117.2834902,117.2076997
0.626889659,7.440008519,318.014205,2366.028394,117.9407203,117.8552559
0.630334107,7.440008513,318.0745971,2366.47771,118.5980753,118.5028121
0.633778556,7.440008507,318.1348861,2366.926259,119.2555548,119.1503685
0.637223004,7.4400085,318.1950722,2367.374042,119.9131587,119.7979248
0.640667452,7.440008494,318.2551558,2367.821062,120.5708868,120.445481
0.644111901,7.440008488,318.315137,2368.267321,121.2287388,121.0930374
0.647556349,7.440008482,318.3750161,2368.71282,121.8867146,121.7405936
0.651000798,7.440008477,318.4347934,2369.157562,122.5448139,122.38815
0.654445246,7.440008471,318.4944692,2369.601549,123.2030365,123.0357062
0.657889694,7.440008465,318.5540437,2370.044781,123.8613823,123.6832625
0.661334143,7.440008459,318.6135171,2370.487263,124.519851,124.3308189
0.664778591,7.440008453,318.6728898,2370.928994,125.1784424,124.9783751
0.668223039,7.440008447,318.732162,2371.369977,125.8371563,125.6259313
0.671667488,7.440008441,318.7913338,2371.810215,126.4959924,126.2734877
0.675111936,7.440008435,318.8504057,2372.249708,127.1549507,126.921044
0.678556384,7.440008429,318.9093778,2372.688459,127.8140308,127.5686002
0.682000833,7.440008423,318.9682504,2373.12647,128.4732326,128.2161566
0.685445281,7.440008417,319.0270238,2373.563742,129.1325559,128.8637128
0.688889729,7.440008411,319.0856981,2374.000278,129.7920004,129.5112691
0.692334178,7.440008406,319.1442737,2374.436079,130.451566,130.1588255
0.695778626,7.4400084,319.2027508,2374.871147,131.1112524,130.8063817
0.699223074,7.440008394,319.2611297,2375.305485,131.7710595,131.4539379
0.702667523,7.440008388,319.3194105,2375.739093,132.430987,132.1014943
0.706111971,7.440008382,319.3775936,2376.171973,133.0910348,132.7490505
0.709556419,7.440008376,319.4356791,2376.604128,133.7512026,133.3966068
0.713000868,7.440008371,319.4936674,2377.03556,134.4114903,134.0441632
0.716445316,7.440008365,319.5515587,2377.466269,135.0718975,134.6917194
0.719889764,7.440008359,319.6093531,2377.896259,135.7324243,135.3392756
0.723334213,7.440008353,319.6670511,2378.32553,136.3930703,135.986832
0.726778661,7.440008348,319.7246527,2378.754085,137.0538353,136.6343883
0.730223109,7.440008342,319.7821583,2379.181925,137.7147192,137.2819445
0.733667558,7.440008336,319.839568,2379.609052,138.3757217,137.9295009
0.737112006,7.44000833,319.8968822,2380.035468,139.0368426,138.5770571
0.740556454,7.440008325,319.954101,2380.461175,139.6980819,139.2246134
0.744000903,7.440008319,320.0112248,2380.886174,140.3594391,139.8721698
0.747445351,7.440008313,320.0682536,2381.310468,141.0209143,140.519726
0.750889799,7.440008307,320.1251879,2381.734057,141.682507,141.1672822
0.754334247,7.440008302,320.1820277,2382.156944,142.3442173,141.8148384
0.757778696,7.440008296,320.2387734,2382.579131,143.0060448,142.4623948
0.761223144,7.44000829,320.2954251,2383.000618,143.6679895,143.1099511
0.764667592,7.440008285,320.3519832,2383.421409,144.330051,143.7575073
0.768112041,7.440008279,320.4084478,2383.841504,144.9922292,144.4050637
0.771556489,7.440008274,320.4648192,2384.260906,145.6545239,145.0526199
0.775000937,7.440008268,320.5210976,2384.679616,146.3169349,145.7001762
0.778445385,7.440008262,320.5772832,2385.097636,146.979462,146.3477324
0.781889834,7.440008257,320.6333762,2385.514967,147.642105,146.9952888
0.785334282,7.440008251,320.689377,2385.931611,148.3048638,147.642845
0.78877873,7.440008245,320.7452857,2386.34757,148.9677381,148.2904012
0.792223178,7.44000824,320.8011025,2386.762846,149.6307278,148.9379575
0.795667627,7.440008234,320.8568277,2387.17744,150.2938327,149.5855139
0.799112075,7.440008229,320.9124615,2387.591354,150.9570525,150.2330701
0.802556523,7.440008223,320.9680041,2388.00459,151.6203871,150.8806263
0.806000971,7.440008218,321.0234558,2388.417149,152.2838363,151.5281825
0.80944542,7.440008212,321.0788167,2388.829033,152.9473999,152.175739
0.812889868,7.440008207,321.1340871,2389.240243,153.6110778,152.8232952
0.816334316,7.440008201,321.1892672,2389.650782,154.2748696,153.4708514
0.819778764,7.440008196,321.2443573,2390.060651,154.9387754,154.1184076
0.823223213,7.44000819,321.2993575,2390.469851,155.6027948,154.765964
0.826667661,7.440008185,321.3542681,2390.878385,156.2669277,155.4135203
0.830112109,7.440008179,321.4090893,2391.286253,156.9311738,156.0610765
0.833556557,7.440008174,321.4638213,2391.693458,157.5955331,156.7086327
0.837001006,7.440008168,321.5184643,2392.1,158.2600054,157.3561891
0.840445454,7.440008163,321.5730185,2392.505883,158.9245903,158.0037454
0.843889902,7.440008157,321.6274843,2392.911107,159.5892879,158.6513016
0.84733435,7.440008152,321.6818617,2393.315673,160.2540978,159.2988578
0.850778799,7.440008146,321.736151,2393.719584,160.9190199,159.9464142
0.854223247,7.440008141,321.7903524,2394.122841,161.584054,160.5939704
0.857667695,7.440008136,321.8444661,2394.525446,162.2492,161.2415267
0.861112143,7.44000813,321.8984923,2394.9274,162.9144576,161.8890829
0.864556591,7.440008125,321.9524313,2395.328705,163.5798267,162.5366391
0.86800104,7.440008119,322.0062833,2395.729362,164.245307,163.1841955
0.871445488,7.440008114,322.0600484,2396.129373,164.9108985,163.8317517
0.874889936,7.440008109,322.1137269,2396.52874,165.576601,164.479308
0.878334384,7.440008103,322.167319,2396.927464,166.2424141,165.1268642
0.881778832,7.440008098,322.2208248,2397.325546,166.9083379,165.7744204
0.885223281,7.440008093,322.2742447,2397.722988,167.5743721,166.4219768
0.888667729,7.440008087,322.3275788,2398.119793,168.2405164,167.0695331
0.892112177,7.440008082,322.3808272,2398.51596,168.9067709,167.7170893
0.895556625,7.440008077,322.4339904,2398.911492,169.5731352,168.3646455
0.899001073,7.440008071,322.4870683,2399.306391,170.2396092,169.0122017
0.902445522,7.440008066,322.5400612,2399.700657,170.9061927,169.6597581
0.90588997,7.440008061,322.5929694,2400.094293,171.5728856,170.3073144
0.909334418,7.440008055,322.6457931,2400.4873,172.2396876,170.9548706
0.912778866,7.44000805,322.6985324,2400.879679,172.9065986,171.6024268
0.916223314,7.440008045,322.7511875,2401.271431,173.5736185,172.249983
0.919667762,7.44000804,322.8037586,2401.662559,174.2407469,172.8975393
0.923112211,7.440008034,322.856246,2402.053064,174.9079839,173.5450957
0.926556659,7.440008029,322.9086499,2402.442948,175.5753292,174.1926519
0.930001107,7.440008024,322.9609704,2402.832211,176.2427826,174.8402081
0.933445555,7.440008019,323.0132077,2403.220855,176.9103439,175.4877643
0.936890003,7.440008013,323.0653621,2403.608883,177.578013,176.1353206
0.940334451,7.440008008,323.1174337,2403.996294,178.2457898,176.7828768
0.943778899,7.440008003,323.1694227,2404.383092,178.913674,177.430433
0.947223348,7.440007998,323.2213294,2404.769276,179.5816654,178.0779894
